Sensor Model:   RO600
Serial Number:  3859
Data Format:    3      (Ohms vs. Kelvin)
SetPoint Limit: 300.0      (Kelvin)
Temperature coefficient:  1 (Negative)
Number of Breakpoints:   199

No.   Units      Temperature (K)

  1  1000.32       300.000
  2  1000.95       290.000
  3  1001.61       280.000
  4  1002.30       270.000
  5  1003.03       260.000
  6  1003.79       250.000
  7  1004.60       240.000
  8  1005.45       230.000
  9  1006.36       220.000
 10  1007.32       210.000
 11  1008.35       200.000
 12  1009.45       190.000
 13  1010.63       180.000
 14  1011.91       170.000
 15  1013.29       160.000
 16  1014.80       150.000
 17  1016.46       140.000
 18  1018.30       130.000
 19  1020.34       120.000
 20  1022.65       110.000
 21  1025.58       100.000
 22  1028.33        90.000
 23  1031.92        80.000
 24  1036.26        70.000
 25  1041.67        60.000
 26  1048.71        50.000
 27  1058.47        40.000
 28  1073.43        30.000
 29  1100.94        20.000
 30  1178.49        10.000
 31  1180.03         9.900
 32  1181.59         9.800
 33  1183.19         9.700
 34  1184.81         9.600
 35  1186.48         9.500
 36  1188.17         9.400
 37  1189.90         9.300
 38  1191.67         9.200
 39  1193.47         9.100
 40  1195.31         9.000
 41  1197.19         8.900
 42  1199.11         8.800
 43  1201.07         8.700
 44  1203.08         8.600
 45  1205.13         8.500
 46  1207.23         8.400
 47  1209.38         8.300
 48  1211.57         8.200
 49  1213.82         8.100
 50  1216.12         8.000
 51  1218.48         7.900
 52  1220.89         7.800
 53  1223.37         7.700
 54  1225.90         7.600
 55  1228.50         7.500
 56  1231.17         7.400
 57  1233.91         7.300
 58  1236.72         7.200
 59  1239.60         7.100
 60  1242.56         7.000
 61  1245.61         6.900
 62  1248.73         6.800
 63  1251.95         6.700
 64  1255.26         6.600
 65  1258.66         6.500
 66  1262.17         6.400
 67  1265.78         6.300
 68  1269.50         6.200
 69  1273.34         6.100
 70  1277.29         6.000
 71  1281.38         5.900
 72  1285.59         5.800
 73  1289.95         5.800
 74  1294.45         5.600
 75  1299.11         5.500
 76  1303.93         5.400
 77  1308.92         5.300
 78  1314.09         5.200
 79  1319.45         5.100
 80  1325.01         5.000
 81  1330.79         4.900
 82  1336.79         4.800
 83  1343.03         4.700
 84  1349.53         4.600
 85  1356.30         4.500
 86  1363.35         4.400
 87  1370.72         4.300
 88  1378.41         4.200
 89  1386.45         4.100
 90  1394.87         4.000
 91  1403.69         3.900
 92  1412.95         3.800
 93  1422.68         3.700
 94  1432.91         3.600
 95  1443.68         3.500
 96  1456.55         3.400
 97  1465.62         3.350
 98  1468.88         3.300
 99  1475.32         3.250
100  1481.96         3.200
101  1488.80         3.150
102  1495.85         3.100
103  1503.13         3.050
104  1510.64         3.000
105  1518.40         2.950
106  1526.42         2.900
107  1534.71         2.850
108  1543.29         2.800
109  1552.17         2.750
110  1561.37         2.700
111  1570.91         2.650
112  1580.80         2.600
113  1591.06         2.550
114  1601.73         2.500
115  1612.82         2.450
116  1624.35         2.400
117  1636.36         2.350
118  1648.88         2.300
119  1661.93         2.250
120  1675.56         2.200
121  1689.81         2.150
122  1704.71         2.100
123  1720.32         2.050
124  1736.69         2.000
125  1753.87         1.950
126  1771.92         1.900
127  1790.93         1.850
128  1810.96         1.800
129  1832.10         1.750
130  1854.45         1.700
131  1878.12         1.650
132  1903.22         1.600
133  1929.89         1.550
134  1958.30         1.500
135  1988.61         1.450
136  2021.02         1.400
137  2055.77         1.350
138  2093.12         1.300
139  2133.38         1.250
140  2176.90         1.200
141  2224.11         1.150
142  2275.51         1.100
143  2331.68         1.050
144  2389.32         1.000
145  2402.37         0.990
146  2415.70         0.980
147  2429.29         0.970
148  2443.17         0.960
149  2457.34         0.950
150  2471.81         0.940
151  2486.59         0.930
152  2501.68         0.920
153  2517.11         0.910
154  2532.88         0.900
155  2549.01         0.890
156  2565.50         0.880
157  2582.37         0.870
158  2599.32         0.860
159  2617.29         0.850
160  2635.37         0.840
161  2653.90         0.830
162  2672.87         0.820
163  2692.31         0.810
164  2714.24         0.800
165  2732.67         0.790
166  2753.63         0.780
167  2775.16         0.770
168  2797.20         0.760
169  2819.96         0.750
170  2843.14         0.740
171  2867.06         0.730
172  2891.64         0.720
173  2916.92         0.710
174  2942.93         0.700
175  2969.70         0.690
176  2997.26         0.680
177  3025.65         0.670
178  3054.91         0.660
179  3085.08         0.650
180  3116.20         0.640
181  3148.31         0.630
182  3181.48         0.620
183  3215.78         0.610
184  3251.18         0.600
185  3287.83         0.590
186  3325.76         0.580
187  3365.04         0.570
188  3405.75         0.560
189  3447.96         0.550
190  3491.77         0.540
191  3537.27         0.530
192  3584.56         0.520
193  3633.74         0.510
194  3684.94         0.500
195  4342.56         0.400
196  5463.40         0.300
197  7826.80         0.200
198  16330.5         0.100
199  46127.0         0.050
